# Time	Temperature [K]	Pressure [Pa]
1e-07	1000	202650
2.9996e-07	1000	202650
6.9972e-07	1000	202650
1.4986e-06	1000	202650
3.09636e-06	1000	202650
6.28164e-06	1000	202650
1.1534e-05	1000	202650
1.74909e-05	1000	202650
2.54009e-05	1000	202650
3.47067e-05	1000	202650
4.52816e-05	1000	202650
5.63723e-05	1000	202650
6.80467e-05	1000	202650
8.53248e-05	1000	202650
9.39639e-05	1000.01	202650
0.000107498	1000.01	202650
0.000122595	1000.03	202650
0.000136073	1000.05	202650
0.000149071	1000.11	202650
0.000160768	1000.23	202650
0.000171369	1000.49	202650
0.00017667	1000.74	202650
0.000184018	1001.49	202650
0.0001912	1003.4	202650
0.000196814	1006.92	202650
0.000202429	1014.9	202650
0.000207228	1030.19	202650
0.000211411	1058.17	202650
0.000213502	1083.46	202650
0.000215993	1138.23	202650
0.000217239	1183.28	202650
0.000219029	1293.2	202650
0.000219923	1369.86	202650
0.000221707	1534.6	202650
0.000222599	1592.41	202650
0.000224377	1677.56	202650
0.000227911	1783.07	202650
0.000234888	1894.37	202650
0.000248841	1997.7	202650
0.000276748	2082.24	202650
0.000332561	2144.25	202650
0.00041628	2179.59	202650
0.0005	2196.1	202650
0.000666667	2210.82	202650
0.001	2220.16	202650
